Distance in cm, Voltage in negative volts,Voltage in Volts
Infinite,0.02,-0.01
15,0.04,0.01
14,0.05,0.01
13,0.06,0.02
12,0.07,0.02
11,0.08,0.03
10,0.09,0.05
9.5,0.1,0.06
9,0.11,0.07
8.5,0.13,0.08
8,0.15,0.1
7.5,0.17,0.14
7,0.21,0.17
6.5,0.26,0.22
6,0.32,0.28
5.5,0.4,0.36
5,0.54,0.47
4.5,0.79,0.64
4,1.08,0.82
3.5,1.26,1.19
3,2.1,1.76
2.5,3.5,2.74
2,5.1,4.3
1.8,7.8,6.51
1.6,10,8.52
1.4,10.04,10.4
,Saturates at 10.1,saturates at 10.4